# PACS Encircled Energy Fractions corresponding to PICC-ME-TN-033 V2.1
# This version only applicable to fast (60arcsec/sec) parallel mode
# Filter blue
# Radius [arcsec], EEF (normal), EEF (pixfrac 0.1), Vesta (normal) Vesta (pixfrac 0.1)
1.04179318591 0.0290050775973 0.0311245439804 0.0318305346315 0.0341570619456
1.08533304222 0.0314100910197 0.0336845573697 0.0344698066306 0.0369664766087
1.13069256783 0.0340168623609 0.0364581127699 0.0373304876231 0.0400102356023
1.17794781253 0.0368425009762 0.0394632805085 0.0404313533717 0.0433081695432
1.22717800445 0.039905569148 0.0427196629038 0.0437927740748 0.0468817902723
1.27846568294 0.0432262060437 0.0462485249609 0.0474368503986 0.0507544342815
1.33189683692 0.0468262622113 0.0500729361607 0.0513875610712 0.0549514183153
1.38756104904 0.0507294455153 0.054217924298 0.0556709230321 0.0595002081942
1.44555164593 0.0549614794942 0.058710642403 0.0603151652137 0.0644306019961
1.50596585461 0.0595448105795 0.0635745257695 0.0653449186306 0.0697683162046
1.56890496556 0.0643085000058 0.068619711438 0.0705725356549 0.0753049302018
1.63447450246 0.0693238265197 0.073922596476 0.0760762488018 0.081124294857
1.70278439922 0.0746611235891 0.0795578626517 0.0819332521226 0.0873083773285
1.77394918419 0.0803615584066 0.0855690708828 0.0881887230915 0.0939049826702
1.84808817224 0.0864629839742 0.0919959088237 0.094884200228 0.10095766329
1.92532566481 0.0930034822712 0.0988780931219 0.10206147233 0.108510002353
2.00579115826 0.100022694424 0.10625683676 0.109764038503 0.116607224382
2.08961956105 0.107562564552 0.114175659355 0.118037924576 0.125297084623
2.17695141985 0.115672680067 0.122687583064 0.126937545017 0.134637767846
2.26793315527 0.124419663907 0.131867930356 0.136536012617 0.144711936271
2.36271730726 0.133859083546 0.141775506499 0.146894303033 0.155584119666
2.46146279095 0.144049284504 0.152471520416 0.158076439621 0.16732148453
2.56433516299 0.15472798162 0.163609331122 0.169794489198 0.179543500726
2.6715068992 0.165537877442 0.174750712159 0.18165622202 0.191769103158
2.78315768371 0.176806707371 0.186305872741 0.194021363139 0.204448547958
2.89947471022 0.188645053323 0.198394770957 0.207011266923 0.217713481669
3.02065299583 0.201171438228 0.211149240937 0.220756001918 0.231708584474
3.14689570807 0.214523639285 0.22472536576 0.235406769128 0.246605151646
3.27841450545 0.228780203159 0.239203053631 0.251049749403 0.262490858593
3.41542989238 0.244021846602 0.254663726781 0.267773502327 0.279455039296
3.55817158885 0.259998549602 0.27082117328 0.285303535792 0.297183473967
3.70687891557 0.275655432818 0.286502398144 0.302481863793 0.31438852167
3.86180119525 0.29164244526 0.302417715136 0.320021877315 0.331849835466
4.02319817057 0.30829581348 0.318920843487 0.338292591147 0.349955631769
4.19134043968 0.325774741809 0.336173580789 0.357468698636 0.368883450536
4.36650990991 0.344195503251 0.354291599229 0.377677762137 0.388760194606
4.54900027037 0.363587546957 0.373330582724 0.398952031942 0.409646912038
4.73911748439 0.382305274518 0.391638329009 0.4194850608 0.429729906563
4.93718030248 0.401118534846 0.410026177057 0.440121818495 0.449899691394
5.14352079676 0.420473006975 0.429058711501 0.461351427582 0.470775911145
5.35848491767 0.440696280557 0.44912581084 0.48353337623 0.492786428132
5.58243307405 0.461657704766 0.47008424818 0.506524135413 0.515773908644
5.81574073736 0.481817610941 0.490347817328 0.528633494746 0.537997058288
6.05879907123 0.502122074779 0.510562694095 0.550899822014 0.560165046292
6.31201558723 0.522948203942 0.531167779713 0.573736920243 0.58275950616
6.57581482816 0.544323712143 0.552315151219 0.597175052048 0.605947213492
6.85063907981 0.564967812064 0.572810163714 0.619808131687 0.628416640633
7.1369491125 0.585436680421 0.592993008187 0.642246484671 0.650541026675
7.43522495362 0.606087610294 0.613195346845 0.664882107029 0.672684232771
7.74596669241 0.626362298534 0.633037102695 0.687101932235 0.694428830327
8.06969531847 0.64580392984 0.652197753616 0.708404277673 0.715422745046
8.40695359519 0.664965724137 0.671110634162 0.729396150804 0.736141386835
8.75830696976 0.683426452263 0.6893889047 0.749614889233 0.756159842513
9.12434452124 0.70083949238 0.706469116586 0.768679702639 0.774859312087
9.50567994816 0.717609795597 0.722744648179 0.787034772392 0.792671273579
9.90295259747 0.733173771531 0.73772816416 0.804061088583 0.809060421875
10.3168285365 0.747695569032 0.751721426044 0.819938446218 0.82435760869
10.7480016695 0.761233459467 0.764980869159 0.834730385824 0.838843898109
11.1971949015 0.77348723301 0.776957178569 0.848106908824 0.851915850163
11.6651613498 0.784861659215 0.787791479422 0.860511829631 0.863727878157
12.1526856068 0.795024709228 0.797403066622 0.871580140263 0.874190850903
12.6605850557 0.804413550041 0.806405593224 0.881791128829 0.883977784354
13.1897112407 0.812764935687 0.814510926332 0.89085519359 0.892771758514
13.7409512947 0.820443834316 0.821933367756 0.899172265754 0.900807318927
14.3152294268 0.827374777182 0.828607046694 0.906658752134 0.90801140802
14.9135084717 0.833750607895 0.834852755742 0.913525520502 0.914735342507
15.5367915039 0.839605571709 0.840620749 0.919809276427 0.920923631303
16.1861235197 0.844959965585 0.845817015581 0.925531338972 0.926472118331
16.8625931892 0.849912552157 0.850683600476 0.930799076567 0.931645452328
17.5673346813 0.854473237392 0.85519189176 0.935622231159 0.936411094351
18.3015295657 0.858615828587 0.859268502693 0.93997082279 0.940687259789
19.0664087933 0.862397841231 0.862969880729 0.943906652732 0.944534577538
19.8632547607 0.865859853394 0.866359076867 0.947472816377 0.948020811407
20.6934034598 0.869062153026 0.86952455451 0.950733921074 0.951241496798
21.5582467178 0.872045495619 0.872464717937 0.953732999491 0.954193177667
22.4592345308 0.874867286221 0.875231446 0.956531214978 0.956930951289
23.3978774951 0.87759857829 0.877945800963 0.959204554823 0.959585699359
24.3757493392 0.880267292115 0.880585301785 0.961781487928 0.962130565502
25.3944895631 0.882893737281 0.883230304087 0.964281943023 0.964651390669
26.4558061867 0.885490051984 0.885794552555 0.966716677329 0.967050926035
27.5614786131 0.888068469041 0.888366830835 0.969096332903 0.969423843106
28.7133606129 0.890644231054 0.890925476377 0.971434617901 0.971743339441
29.9133834312 0.893214336864 0.893500526561 0.973724956386 0.97403910534
31.1635590262 0.89576920551 0.896047082682 0.975953269779 0.976258294117
32.4659834423 0.898311729795 0.898546055537 0.978118867964 0.978376086121
33.8228403242 0.900846202224 0.901092275822 0.980222267414 0.980492381133
35.236404578 0.90338686257 0.90360268926 0.982274545663 0.982511457507
36.7090461855 0.905943591327 0.906181151281 0.984281606529 0.984542374865
38.2432341775 0.908484041244 0.908698466567 0.986202578944 0.986437952515
39.8415407734 0.911017379422 0.911218491886 0.988041704231 0.988262464344
41.5066456941 0.913541919595 0.913744371567 0.989790813271 0.990013043756
43.2413406542 0.916057814937 0.91623282597 0.991443216952 0.991635325661
45.0485340433 0.91851832625 0.91868728759 0.992940167492 0.993125635483
46.9312558018 0.920927769909 0.921061601594 0.994278325465 0.994425231817
48.8926625007 0.923338522268 0.923435699558 0.995506417363 0.995613088373
50.9360426344 0.925766286813 0.925863586201 0.996632165961 0.996738970997
53.0648221339 0.928180075139 0.928226059734 0.997611228655 0.997661705708
55.2825701109 0.930644290236 0.930684281648 0.998503092271 0.998546990639
57.5930048413 0.933172389534 0.933186902078 0.99931036454 0.999326294884
60.0 0.935746296049 0.935746296049 1.0 1.0
63.095734448 0.938413943333 0.938413943333
67.6082975392 0.94245834411 0.94245834411
72.4435960075 0.946446776015 0.946446776015
77.6247116629 0.950310833367 0.950310833367
83.1763771103 0.953759928368 0.953759928368
89.1250938134 0.95698357966 0.95698357966
95.4992586021 0.960081906288 0.960081906288
102.329299228 0.963154585702 0.963154585702
109.647819614 0.966408337887 0.966408337887
117.489755494 0.969746370029 0.969746370029
125.892541179 0.972912129752 0.972912129752
134.896288259 0.975825756821 0.975825756821
144.543977075 0.978420817396 0.978420817396
154.881661891 0.980693473398 0.980693473398
165.958690744 0.982719088527 0.982719088527
177.827941004 0.984538136868 0.984538136868
190.546071796 0.986163340728 0.986163340728
204.173794467 0.987634978856 0.987634978856
218.776162395 0.988981501276 0.988981501276
234.422881532 0.990222031256 0.990222031256
251.188643151 0.991349063112 0.991349063112
269.153480393 0.99236840552 0.99236840552
288.403150313 0.993278821397 0.993278821397
309.029543251 0.994080956629 0.994080956629
331.131121483 0.994783083367 0.994783083367
354.813389234 0.99540260857 0.99540260857
380.189396321 0.99598665734 0.99598665734
407.380277804 0.99651962274 0.99651962274
436.51583224 0.997012057741 0.997012057741
467.735141287 0.997418424215 0.997418424215
501.187233627 0.997814325787 0.997814325787
537.03179637 0.998237691858 0.998237691858
575.439937337 0.998664223647 0.998664223647
616.595001861 0.99906949812 0.99906949812
660.693448008 0.999448573515 0.999448573515
707.945784384 0.999711106017 0.999711106017
758.577575029 0.999921905733 0.999921905733
812.830516164 1.0 1.0
870.963589956 0.999973009221 0.999973009221
933.254300797 0.99995069259 0.99995069259
1000.0 0.999916019172 0.999916019172
