# PACS Encircled Energy Fractions corresponding to PICC-ME-TN-033 V2.1
# This version only applicable to slow (20arcsec/sec) parallel mode
# Filter blue
# Radius [arcsec], EEF (normal), EEF (pixfrac 0.1), Vesta (normal) Vesta (pixfrac 0.1)
1.04179318591 0.0529907002897 0.0584310545586 0.0581594289152 0.0641312777284
1.08533304222 0.0573085775809 0.0631871704442 0.0628984417143 0.0693513427716
1.13069256783 0.0619845953392 0.0683380389966 0.0680305238233 0.0750046661476
1.17794781253 0.0670489957919 0.0739170024327 0.0735888668906 0.081127842347
1.22717800445 0.0725345808118 0.0799602255491 0.0796094718398 0.0877605637578
1.27846568294 0.0784769302684 0.0865069365053 0.0861313885158 0.0949458849339
1.33189683692 0.0849146388881 0.0935996880201 0.093196975645 0.10273050927
1.38756104904 0.0918895732197 0.101284640742 0.100852182861 0.11116510001
1.44555164593 0.0994471504358 0.109611870701 0.109146856697 0.120304617691
1.50596585461 0.107622409217 0.11861946463 0.118119450614 0.130190861606
1.56890496556 0.115944750377 0.127768416528 0.127253381287 0.140232158621
1.63447450246 0.124571165897 0.137220432251 0.136720968206 0.150606002623
1.70278439922 0.133652934938 0.147117558337 0.146688259091 0.161468306731
1.77394918419 0.143264772949 0.157542596499 0.157237257166 0.172909950415
1.84808817224 0.153469885634 0.168563526199 0.16843733048 0.185005541858
1.92532566481 0.16432897593 0.180244002539 0.180355098739 0.19782494134
2.00579115826 0.175903477046 0.192647404446 0.193057982106 0.211437704828
2.08961956105 0.188257220935 0.205838869472 0.206616032571 0.225915317463
2.17695141985 0.201465480131 0.219900529378 0.221111859028 0.241347917477
2.26793315527 0.215630605429 0.234958422931 0.236657792553 0.257873838109
2.36271730726 0.230835523123 0.251100526502 0.253344840438 0.275589630097
2.46146279095 0.247166626568 0.268416441593 0.271267814005 0.294593626326
2.56433516299 0.263942878455 0.286038534389 0.289679117995 0.313933405519
2.6715068992 0.280242738325 0.302868313326 0.30756715603 0.332403132979
2.78315768371 0.29677510889 0.31979056854 0.325710058549 0.350974009867
2.89947471022 0.313730602287 0.33701144864 0.344317028683 0.369872293615
3.02065299583 0.331304399212 0.354756698703 0.363602281813 0.389345749969
3.14689570807 0.34972509029 0.373300796382 0.383816704369 0.409695635315
3.27841450545 0.369083183765 0.392732707581 0.405059607368 0.431019567649
3.41542989238 0.389465843847 0.413136264622 0.427426627732 0.453409526498
3.55817158885 0.410306085448 0.43387451437 0.450295342428 0.476166285262
3.70687891557 0.429426409598 0.452568509777 0.471275471675 0.496678435648
3.86180119525 0.447996266445 0.470493735002 0.491650660174 0.516346015341
4.02319817057 0.466595933098 0.488237697673 0.512057815754 0.535813869075
4.19134043968 0.485430915802 0.505998920553 0.532722457135 0.555299849837
4.36650990991 0.50460669563 0.523880150268 0.553760300424 0.574916672146
4.54900027037 0.524145512159 0.54200486143 0.575195681999 0.594799797555
4.73911748439 0.541451201668 0.557786996351 0.594178723972 0.612110441516
4.93718030248 0.557715858126 0.572439052552 0.612017892347 0.62817946691
5.14352079676 0.573583960041 0.586666766362 0.629420530838 0.64378145984
5.35848491767 0.589492279241 0.600907203694 0.646865976322 0.659396080003
5.58243307405 0.605313546064 0.615072480306 0.664214411261 0.674926743031
5.81574073736 0.619353969918 0.627761293391 0.679606446422 0.688835122024
6.05879907123 0.632860082246 0.640105850981 0.694410258312 0.702363901271
6.31201558723 0.646276048142 0.652453978916 0.709113258552 0.71589474129
6.57581482816 0.659661148838 0.664861624758 0.723780361263 0.729488896851
6.85063907981 0.672099886077 0.676668969766 0.737406456618 0.742421916212
7.1369491125 0.684276693336 0.688421308824 0.750742656915 0.755292179954
7.43522495362 0.696568444889 0.7004443626 0.764202452358 0.768457027233
7.74596669241 0.708480711233 0.712235516608 0.777242890193 0.781364520681
8.06969531847 0.719829695607 0.723566440643 0.789661978844 0.793763784593
8.40695359519 0.731171583777 0.734878319524 0.802069981363 0.80613884607
8.75830696976 0.742011841933 0.74560377588 0.813923769223 0.817866616585
9.12434452124 0.752068988256 0.755480137014 0.824914055962 0.828658456355
9.50567994816 0.761930251486 0.765160665972 0.835685108165 0.83923111748
9.90295259747 0.770677028698 0.773602762562 0.84522822049 0.848439783458
10.3168285365 0.778765914144 0.781325700399 0.854044203749 0.856854067916
10.7480016695 0.786263923839 0.788442171913 0.862206197429 0.864597249102
11.1971949015 0.792813055557 0.794603229123 0.869320764529 0.871285828816
11.6651613498 0.798951048666 0.800385893535 0.875977679742 0.877552701552
12.1526856068 0.804419684223 0.805556569641 0.881892955844 0.883140909102
12.6605850557 0.809639496844 0.810492174816 0.887527623673 0.888463603884
13.1897112407 0.814565670409 0.815216281408 0.892831850805 0.893546023141
13.7409512947 0.819453242995 0.819956364577 0.898084898772 0.898637172737
14.3152294268 0.824359053801 0.82478354529 0.903348408137 0.903814370255
14.9135084717 0.829384675496 0.82978579053 0.908733059033 0.909173360936
15.5367915039 0.834548096775 0.834993029883 0.914257712285 0.914746113062
16.1861235197 0.839789107138 0.840302012327 0.919855314331 0.920418327711
16.8625931892 0.845040508059 0.845621359332 0.925451058896 0.926088656342
17.5673346813 0.850157656745 0.850785980518 0.930885040548 0.931574748311
18.3015295657 0.854961004951 0.855601271526 0.93595894174 0.936661759057
19.0664087933 0.859399873493 0.860003307138 0.940615799013 0.941278185012
19.8632547607 0.863417886749 0.863962390693 0.944792282189 0.945389981359
20.6934034598 0.867025479076 0.867486969152 0.948498274587 0.949004849863
21.5582467178 0.87031644034 0.870687327603 0.951835024431 0.952242145467
22.4592345308 0.87341380515 0.873742560465 0.954935736306 0.955296609319
23.3978774951 0.8764152278 0.876716738932 0.957905597095 0.95823656431
24.3757493392 0.879371032055 0.879658090821 0.960797667885 0.961112770811
25.3944895631 0.882297521149 0.882574066961 0.96362747965 0.963931042561
26.4558061867 0.885180631624 0.885470508721 0.966377028196 0.96669522479
27.5614786131 0.888006044031 0.888273722144 0.969027809292 0.969321638176
28.7133606129 0.890747990807 0.891009875313 0.971548514448 0.971835983718
29.9133834312 0.89339189619 0.893653616145 0.973919862342 0.974207150987
31.1635590262 0.895947012764 0.896177004505 0.976148447884 0.976400908631
32.4659834423 0.898464690641 0.898689613579 0.978286772295 0.978533669043
33.8228403242 0.900978775737 0.901189341904 0.980367792675 0.98059893007
35.236404578 0.903484161479 0.903697774381 0.982381350173 0.982615831954
36.7090461855 0.905970196416 0.906170394443 0.984310810798 0.98453056714
38.2432341775 0.908444120543 0.90863413358 0.986158758196 0.986367334527
39.8415407734 0.910913039843 0.911078911574 0.987927171213 0.988109247756
41.5066456941 0.913402313136 0.913563136754 0.989637567982 0.989814103237
43.2413406542 0.915891106231 0.916043035386 0.991260221666 0.991426993516
45.0485340433 0.918340699842 0.918476361765 0.992745187901 0.992894103293
46.9312558018 0.920755966159 0.920877865744 0.994089737376 0.994223545921
48.8926625007 0.923140598372 0.923238837403 0.995289157323 0.995396993801
50.9360426344 0.925550592258 0.925632086688 0.996395399161 0.996484855176
53.0648221339 0.92802409253 0.928081097283 0.997440007351 0.997502581174
55.2825701109 0.930568157352 0.930618096495 0.998419521598 0.998474339537
57.5930048413 0.933137357925 0.933159382946 0.999271910523 0.999296087276
60.0 0.935746296049 0.935746296049 1.0 1.0
63.095734448 0.938413943333 0.938413943333
67.6082975392 0.94245834411 0.94245834411
72.4435960075 0.946446776015 0.946446776015
77.6247116629 0.950310833367 0.950310833367
83.1763771103 0.953759928368 0.953759928368
89.1250938134 0.95698357966 0.95698357966
95.4992586021 0.960081906288 0.960081906288
102.329299228 0.963154585702 0.963154585702
109.647819614 0.966408337887 0.966408337887
117.489755494 0.969746370029 0.969746370029
125.892541179 0.972912129752 0.972912129752
134.896288259 0.975825756821 0.975825756821
144.543977075 0.978420817396 0.978420817396
154.881661891 0.980693473398 0.980693473398
165.958690744 0.982719088527 0.982719088527
177.827941004 0.984538136868 0.984538136868
190.546071796 0.986163340728 0.986163340728
204.173794467 0.987634978856 0.987634978856
218.776162395 0.988981501276 0.988981501276
234.422881532 0.990222031256 0.990222031256
251.188643151 0.991349063112 0.991349063112
269.153480393 0.99236840552 0.99236840552
288.403150313 0.993278821397 0.993278821397
309.029543251 0.994080956629 0.994080956629
331.131121483 0.994783083367 0.994783083367
354.813389234 0.99540260857 0.99540260857
380.189396321 0.99598665734 0.99598665734
407.380277804 0.99651962274 0.99651962274
436.51583224 0.997012057741 0.997012057741
467.735141287 0.997418424215 0.997418424215
501.187233627 0.997814325787 0.997814325787
537.03179637 0.998237691858 0.998237691858
575.439937337 0.998664223647 0.998664223647
616.595001861 0.99906949812 0.99906949812
660.693448008 0.999448573515 0.999448573515
707.945784384 0.999711106017 0.999711106017
758.577575029 0.999921905733 0.999921905733
812.830516164 1.0 1.0
870.963589956 0.999973009221 0.999973009221
933.254300797 0.99995069259 0.99995069259
1000.0 0.999916019172 0.999916019172
