# PACS Encircled Energy Fractions corresponding to PICC-ME-TN-033 V2.1
# This version only applicable to slow (20arcsec/sec) parallel mode
# Filter green
# Radius [arcsec], EEF (normal), EEF (pixfrac 0.1), Vesta (normal) Vesta (pixfrac 0.1)
1.04179318591 0.039276928751 0.042047185161 0.0433445002553 0.0464021784121
1.08533304222 0.0425291632272 0.0455171205071 0.0469335214789 0.0502314875715
1.13069256783 0.0460537442368 0.0492770178012 0.0508230911944 0.0543807882853
1.17794781253 0.0498737518884 0.0533514305961 0.0550386794638 0.0588771769337
1.22717800445 0.0540142252422 0.0577669951703 0.0596079181488 0.0637500483122
1.27846568294 0.0585023294376 0.0625526082119 0.0645607853438 0.0690312917172
1.33189683692 0.0633675370198 0.0677396195891 0.0699298054797 0.0747555036797
1.38756104904 0.0686418246874 0.0733620415096 0.0757502664432 0.0809602187857
1.44555164593 0.0743598867807 0.0794567754709 0.0820604551733 0.0876861601294
1.50596585461 0.080551826593 0.0860556707537 0.0888935906272 0.0949684738067
1.56890496556 0.086980830067 0.0929006688789 0.0959882803484 0.102522318772
1.63447450246 0.0937416757584 0.100091655184 0.103449127435 0.110457934748
1.70278439922 0.100925576385 0.107722817941 0.111376798414 0.118879272537
1.77394918419 0.108588154557 0.115853409202 0.1198326763 0.127851721162
1.84808817224 0.11678010928 0.124537036501 0.128872708761 0.137434438586
1.92532566481 0.125552136291 0.133827029169 0.138552838878 0.147686274726
2.00579115826 0.134956817508 0.143778531617 0.14893109054 0.15866808183
2.08961956105 0.145049662614 0.154449644706 0.160068718014 0.170443974186
2.17695141985 0.155893140695 0.165906602948 0.172034655769 0.183087042362
2.26793315527 0.167563425409 0.178232581178 0.184912963374 0.196689073494
2.36271730726 0.180131350423 0.19150225561 0.19878180489 0.211332472867
2.46146279095 0.193672168438 0.205794622223 0.213724220293 0.227104412108
2.56433516299 0.207808439205 0.22066819888 0.229323586728 0.243517581955
2.6715068992 0.22200651366 0.235510831744 0.24499086354 0.25989629189
2.78315768371 0.236711620562 0.250827699097 0.261217447122 0.276798107757
2.89947471022 0.252071582255 0.266777480079 0.278166468489 0.294398143791
3.02065299583 0.268220669618 0.283507240227 0.295986098773 0.312858693263
3.14689570807 0.285302640925 0.301177207599 0.314834978225 0.332356574996
3.27841450545 0.303408879164 0.319880905601 0.334813934887 0.352994979519
3.41542989238 0.322631659073 0.339712077571 0.356024777978 0.374877337027
3.55817158885 0.342599419899 0.360247699583 0.378057353668 0.397536691067
3.70687891557 0.361744736188 0.379759103083 0.399181565523 0.419064972691
3.86180119525 0.380912227299 0.39917478518 0.420329614281 0.440486962935
4.02319817057 0.400492576672 0.418868962468 0.441932663372 0.462215649902
4.19134043968 0.420654536359 0.439001946012 0.464176914194 0.484427918226
4.36650990991 0.441509044242 0.459685679191 0.487184750547 0.507247261528
4.54900027037 0.462982645139 0.480899817038 0.510875026402 0.530651154325
4.73911748439 0.482609219114 0.500064944572 0.532525679457 0.551792484599
4.93718030248 0.501446900167 0.518294825922 0.55330454597 0.571900490511
5.14352079676 0.520055905738 0.536197319251 0.573829878412 0.591646008117
5.35848491767 0.538800019984 0.554163352601 0.59450310788 0.611460428649
5.58243307405 0.557383157147 0.571886036871 0.61499732398 0.631004917494
5.81574073736 0.573559910778 0.586994865236 0.632834039274 0.647662907329
6.05879907123 0.588762274217 0.60101521091 0.649593696771 0.663117909456
6.31201558723 0.603522631574 0.614422303538 0.665863782763 0.677894325769
6.57581482816 0.617850885757 0.627212648582 0.681655082028 0.691988153579
6.85063907981 0.630252879201 0.638181746787 0.695318256024 0.7040697655
7.1369491125 0.641762859203 0.648298684563 0.707994686567 0.715208621843
7.43522495362 0.652983729889 0.658218001546 0.720349644626 0.726126986411
7.74596669241 0.663540583534 0.667689712501 0.731969122758 0.736548735305
8.06969531847 0.673385580006 0.676735129444 0.74280009804 0.746497172475
8.40695359519 0.683285159358 0.685963056213 0.753688292842 0.756644028885
8.75830696976 0.693195249613 0.695406328108 0.764584804337 0.767025288328
9.12434452124 0.703171754128 0.705198921773 0.775551055714 0.777788547596
9.50567994816 0.713570448451 0.715584088012 0.786979431 0.789201991222
9.90295259747 0.724166184402 0.726324089274 0.798621092094 0.801002885551
10.3168285365 0.735095240815 0.73749438875 0.810626098785 0.813274164938
10.7480016695 0.746232141055 0.748909720732 0.822855566961 0.825810952918
11.1971949015 0.757201773644 0.760158406159 0.834895044176 0.838158435473
11.6651613498 0.768115120553 0.771275787399 0.846866568946 0.850355163699
12.1526856068 0.778287367334 0.781476984757 0.858013778204 0.861534327236
12.6605850557 0.788014874654 0.791141135567 0.868663241189 0.872113860298
13.1897112407 0.796645253561 0.799593208329 0.878094296081 0.881348109291
13.7409512947 0.804532762954 0.807267654159 0.886697321422 0.889715965136
14.3152294268 0.811319287383 0.813808409872 0.894076356354 0.896823732171
14.9135084717 0.817301146917 0.819527924637 0.900557716157 0.90301552821
15.5367915039 0.82251166832 0.82450100618 0.906177372622 0.908373109774
16.1861235197 0.827039946518 0.828840565151 0.911032782454 0.913020220239
16.8625931892 0.831156270802 0.832775621092 0.915421320869 0.91720868322
17.5673346813 0.834971915461 0.836437405673 0.919464768142 0.921082307006
18.3015295657 0.838693056976 0.840028012472 0.923389564441 0.924863025253
19.0664087933 0.842518547746 0.84376536709 0.927413969731 0.928790150022
19.8632547607 0.846587329944 0.847813576296 0.931690013457 0.933043486251
20.6934034598 0.850969388525 0.852232446735 0.936293499992 0.937687603976
21.5582467178 0.855611722879 0.856939278966 0.941164365024 0.942629658718
22.4592345308 0.860364898084 0.861748608154 0.946135971085 0.947663244893
23.3978774951 0.865054391159 0.866454780272 0.951013844767 0.952559528115
24.3757493392 0.869540109389 0.870927743856 0.955641357886 0.957172963258
25.3944895631 0.87373561692 0.875092552713 0.959920935453 0.961418657079
26.4558061867 0.877587589764 0.878927306551 0.963791364525 0.965270080626
27.5614786131 0.881077613923 0.882356609216 0.967229763075 0.968641457659
28.7133606129 0.88423724103 0.885462405847 0.970268180532 0.97162045958
29.9133834312 0.887128371774 0.888303583434 0.972971927319 0.974269070432
31.1635590262 0.8898333716 0.890944957316 0.975428644811 0.976655560613
32.4659834423 0.892432049577 0.893503095819 0.977722873761 0.978905044007
33.8228403242 0.894975171764 0.896015584495 0.979906795798 0.981055154221
35.236404578 0.897487628777 0.898476853746 0.982003703793 0.983095563581
36.7090461855 0.899973725203 0.900922838691 0.984013812019 0.98506139865
38.2432341775 0.902442259058 0.903337053026 0.985941907237 0.986929538548
39.8415407734 0.904890740766 0.905728740779 0.98777989731 0.988704842137
41.5066456941 0.907315591114 0.908108193871 0.989518031368 0.990392868849
43.2413406542 0.909711418352 0.910442785919 0.991144062993 0.991951311963
45.0485340433 0.912067551221 0.91273643679 0.992639381298 0.99337766559
46.9312558018 0.914378371218 0.914968929801 0.993990369356 0.994642200022
48.8926625007 0.916707396906 0.917211438631 0.995259087683 0.995815425127
50.9360426344 0.91907279786 0.919496225738 0.996456855938 0.996924215626
53.0648221339 0.921397635512 0.921715374012 0.997489272517 0.997839977264
55.2825701109 0.923723262619 0.923921161492 0.998391691198 0.998610122625
57.5930048413 0.926140213068 0.926266541158 0.999252871536 0.999392306513
60.0 0.928593498908 0.928593498908 1.0 1.0
63.095734448 0.931027063771 0.931027063771
67.6082975392 0.934763553804 0.934763553804
72.4435960075 0.938253125012 0.938253125012
77.6247116629 0.941507508654 0.941507508654
83.1763771103 0.944621953282 0.944621953282
89.1250938134 0.947672748201 0.947672748201
95.4992586021 0.950775633998 0.950775633998
102.329299228 0.953871482171 0.953871482171
109.647819614 0.956851938302 0.956851938302
117.489755494 0.959731306289 0.959731306289
125.892541179 0.96252410557 0.96252410557
134.896288259 0.965224465473 0.965224465473
144.543977075 0.967888056281 0.967888056281
154.881661891 0.970655576055 0.970655576055
165.958690744 0.973416528367 0.973416528367
177.827941004 0.976000856997 0.976000856997
190.546071796 0.97836477806 0.97836477806
204.173794467 0.980530432304 0.980530432304
218.776162395 0.982500969143 0.982500969143
234.422881532 0.984294173068 0.984294173068
251.188643151 0.985966751799 0.985966751799
269.153480393 0.987508524228 0.987508524228
288.403150313 0.98892214481 0.98892214481
309.029543251 0.990244647001 0.990244647001
331.131121483 0.991461940691 0.991461940691
354.813389234 0.992567060926 0.992567060926
380.189396321 0.993595907017 0.993595907017
407.380277804 0.994481762041 0.994481762041
436.51583224 0.995214056508 0.995214056508
467.735141287 0.995828933496 0.995828933496
501.187233627 0.996396083246 0.996396083246
537.03179637 0.996929586322 0.996929586322
575.439937337 0.997465746896 0.997465746896
616.595001861 0.99796004061 0.99796004061
660.693448008 0.998472049131 0.998472049131
707.945784384 0.998922856346 0.998922856346
758.577575029 0.999250190663 0.999250190663
812.830516164 0.999484254887 0.999484254887
870.963589956 0.999720630542 0.999720630542
933.254300797 0.999916588884 0.999916588884
1000.0 1.0 1.0
