# PACS Encircled Energy Fractions corresponding to PICC-ME-TN-033 V2.1
# This version only applicable to fast (60arcsec/sec) parallel mode
# Filter green
# Radius [arcsec], EEF (normal), EEF (pixfrac 0.1), Vesta (normal) Vesta (pixfrac 0.1)
1.04179318591 0.0232702656395 0.0245033224486 0.0256771016775 0.027038091533
1.08533304222 0.0252139425667 0.0265408172831 0.0278217988955 0.029286340525
1.13069256783 0.0273213139201 0.0287492356324 0.0301471195423 0.0317231920724
1.17794781253 0.0296062812913 0.0311430719544 0.0326684028665 0.0343646398016
1.22717800445 0.0320839281262 0.0337380515709 0.0354022921929 0.0372280355094
1.27846568294 0.0347706205612 0.0365512356792 0.0383668461866 0.0403322050365
1.33189683692 0.037684116838 0.0396011352922 0.0415816595836 0.0436975739922
1.38756104904 0.0408436860331 0.0429078348687 0.0450679941979 0.047346304171
1.44555164593 0.0442702368995 0.0464931264688 0.0488489210881 0.051302441584
1.50596585461 0.04798344654 0.0503770300902 0.0529461512751 0.0555880757234
1.56890496556 0.0518970550874 0.0544517099055 0.0572644669051 0.0600841742099
1.63447450246 0.056058256891 0.0587735118297 0.0618559498772 0.0648529200082
1.70278439922 0.060513871298 0.0634012433089 0.0667722674129 0.0699592122373
1.77394918419 0.0652967285812 0.0683692909521 0.0720496454217 0.0754409946169
1.84808817224 0.0704386306733 0.0737107396362 0.0777231738755 0.0813347731723
1.92532566481 0.0759723881763 0.0794597269636 0.0838290550865 0.0876782148959
2.00579115826 0.0819326506031 0.0856523061867 0.0904055200049 0.0945111001192
2.08961956105 0.0883564100825 0.0923269699555 0.0974933840938 0.10187590051
2.17695141985 0.0952848326234 0.0995250536038 0.105138068494 0.109818224101
2.26793315527 0.102766288836 0.107291094836 0.113392945082 0.118387212189
2.36271730726 0.110848133315 0.115673164247 0.122310262828 0.127635904033
2.46146279095 0.119581074085 0.124723219934 0.131945970455 0.137621628125
2.56433516299 0.128822311337 0.134275505905 0.142142430141 0.148161408692
2.6715068992 0.138362146684 0.144092568121 0.152668162684 0.158993131157
2.78315768371 0.148415410456 0.154410577513 0.163760261574 0.170377443757
2.89947471022 0.159071352674 0.165322411629 0.175517208465 0.182416832035
3.02065299583 0.170415516596 0.176926970542 0.188033391243 0.195220426504
3.14689570807 0.182539907439 0.189337486259 0.201410327579 0.208913173959
3.27841450545 0.19551635912 0.202628141562 0.215727268171 0.223576917666
3.41542989238 0.209419852799 0.216876223619 0.231066934408 0.239296924276
3.55817158885 0.224098099595 0.231920151599 0.247261194392 0.255894805875
3.70687891557 0.238810499358 0.246969097673 0.263492562399 0.272497637802
3.86180119525 0.254014110498 0.262491082014 0.280265467702 0.289621948404
4.02319817057 0.269944053729 0.278694189831 0.297839370941 0.307497357808
4.19134043968 0.286729075026 0.295699212076 0.316356316696 0.326257130218
4.36650990991 0.304473415746 0.313614887783 0.335931297461 0.346021222447
4.54900027037 0.323173552893 0.332478814388 0.356560355048 0.3668310631
4.73911748439 0.341484221659 0.350795794445 0.376758574099 0.387036248256
4.93718030248 0.360039658836 0.369268830433 0.397225913154 0.407412636771
5.14352079676 0.379196901049 0.388315851947 0.418356363302 0.428421430519
5.35848491767 0.39921404546 0.408219514823 0.440434703328 0.450374514987
5.58243307405 0.419912705928 0.428790543589 0.463263934113 0.473062871929
5.81574073736 0.439755619388 0.448467061426 0.485147183434 0.494762461623
6.05879907123 0.459733722579 0.468183741545 0.507178076861 0.516504808612
6.31201558723 0.480240639306 0.488304817439 0.529790943615 0.538691802481
6.57581482816 0.501257939631 0.508848234201 0.552965296017 0.561343104593
6.85063907981 0.521287587076 0.528466210656 0.575047514164 0.582970939749
7.1369491125 0.541194150679 0.547986490713 0.596991697026 0.604488761082
7.43522495362 0.561482949485 0.56791420019 0.61935540577 0.626453916481
7.74596669241 0.581388064564 0.587447382651 0.641293053255 0.647981042314
8.06969531847 0.600523020536 0.606250909389 0.66237784697 0.668700020097
8.40695359519 0.619725572015 0.625069945947 0.683534222926 0.689433090401
8.75830696976 0.638550541762 0.643527194053 0.704270557261 0.70976355096
9.12434452124 0.656631161403 0.661328227066 0.724181748071 0.729366147258
9.50567994816 0.674518854595 0.678987844328 0.743876126523 0.748808786273
9.90295259747 0.691666596099 0.695877182902 0.762749581826 0.767397028628
10.3168285365 0.708160617011 0.712027322348 0.780896933438 0.785164820123
10.7480016695 0.724057832018 0.727738149765 0.798380612174 0.802442773042
11.1971949015 0.739015681139 0.742648912018 0.814822094391 0.818832282999
11.6651613498 0.753255976895 0.756694431664 0.830465748131 0.834260952071
12.1526856068 0.766418788805 0.769475636264 0.844913801903 0.84828780572
12.6605850557 0.778725238461 0.781434975362 0.858409779608 0.861400659189
13.1897112407 0.789821273197 0.792359984863 0.870562308924 0.873364418931
13.7409512947 0.800007430074 0.802363299495 0.881702472769 0.884302770142
14.3152294268 0.809068293128 0.811107204639 0.891591815234 0.893842269441
14.9135084717 0.817212245854 0.818966586641 0.900459591363 0.902395949848
15.5367915039 0.824454055832 0.82603607969 0.908321288198 0.910067451397
16.1861235197 0.83076578458 0.832168337896 0.915145186496 0.916693258589
16.8625931892 0.83640470118 0.837604274178 0.921214290381 0.922538322387
17.5673346813 0.841395633795 0.842483952469 0.926554964977 0.927756199717
18.3015295657 0.845860915216 0.846795253238 0.931301107752 0.932332385922
19.0664087933 0.84998929058 0.850788704022 0.935659822749 0.936542177541
19.8632547607 0.853884335078 0.854634575833 0.939744103008 0.940572183312
20.6934034598 0.857652811122 0.858364624905 0.943670346125 0.944456012552
21.5582467178 0.861357078758 0.862021245985 0.947505817429 0.948238893839
22.4592345308 0.865019548294 0.865714505329 0.951273554098 0.952040614843
23.3978774951 0.868650254475 0.869303931861 0.954982788825 0.955704287044
24.3757493392 0.872210182688 0.872852189684 0.958588458656 0.959297075651
25.3944895631 0.875668469864 0.876319650098 0.962054327224 0.962773069203
26.4558061867 0.87901096706 0.879627385668 0.965362421144 0.966042794884
27.5614786131 0.882219761928 0.882847935919 0.968490412087 0.969183760863
28.7133606129 0.885278554543 0.88586476752 0.971417533196 0.972064567387
29.9133834312 0.888163787474 0.888744541214 0.974114770255 0.974755778798
31.1635590262 0.890915952401 0.89147591534 0.976623546358 0.977241606996
32.4659834423 0.89356153942 0.894069172472 0.978969551293 0.979529852675
33.8228403242 0.896117157373 0.896615869556 0.981167265566 0.981717720513
35.236404578 0.898628562869 0.899091380286 0.983263012945 0.983773848946
36.7090461855 0.901106217893 0.901564160836 0.98526380395 0.985769259737
38.2432341775 0.903576557804 0.904007974517 0.987193892608 0.987670069996
39.8415407734 0.906081876871 0.906514793089 0.989094617073 0.989572449544
41.5066456941 0.908517306073 0.908891117395 0.990844427571 0.991257022849
43.2413406542 0.910863442391 0.911246931376 0.992415612705 0.992838889731
45.0485340433 0.913098666579 0.91339997383 0.99377747772 0.994110046429
46.9312558018 0.91532624922 0.915598567244 0.995036592316 0.995337164087
48.8926625007 0.917496443297 0.917730393403 0.996129999813 0.996388222889
50.9360426344 0.919662824998 0.919879196203 0.99710810002 0.997346920333
53.0648221339 0.92188857619 0.922046506139 0.998031149645 0.998205465262
55.2825701109 0.92408467637 0.924242865953 0.998790602623 0.998965204811
57.5930048413 0.92628863996 0.926354520683 0.999416698127 0.999489414157
60.0 0.928593498908 0.928593498908 1.0 1.0
63.095734448 0.931027063771 0.931027063771
67.6082975392 0.934763553804 0.934763553804
72.4435960075 0.938253125012 0.938253125012
77.6247116629 0.941507508654 0.941507508654
83.1763771103 0.944621953282 0.944621953282
89.1250938134 0.947672748201 0.947672748201
95.4992586021 0.950775633998 0.950775633998
102.329299228 0.953871482171 0.953871482171
109.647819614 0.956851938302 0.956851938302
117.489755494 0.959731306289 0.959731306289
125.892541179 0.96252410557 0.96252410557
134.896288259 0.965224465473 0.965224465473
144.543977075 0.967888056281 0.967888056281
154.881661891 0.970655576055 0.970655576055
165.958690744 0.973416528367 0.973416528367
177.827941004 0.976000856997 0.976000856997
190.546071796 0.97836477806 0.97836477806
204.173794467 0.980530432304 0.980530432304
218.776162395 0.982500969143 0.982500969143
234.422881532 0.984294173068 0.984294173068
251.188643151 0.985966751799 0.985966751799
269.153480393 0.987508524228 0.987508524228
288.403150313 0.98892214481 0.98892214481
309.029543251 0.990244647001 0.990244647001
331.131121483 0.991461940691 0.991461940691
354.813389234 0.992567060926 0.992567060926
380.189396321 0.993595907017 0.993595907017
407.380277804 0.994481762041 0.994481762041
436.51583224 0.995214056508 0.995214056508
467.735141287 0.995828933496 0.995828933496
501.187233627 0.996396083246 0.996396083246
537.03179637 0.996929586322 0.996929586322
575.439937337 0.997465746896 0.997465746896
616.595001861 0.99796004061 0.99796004061
660.693448008 0.998472049131 0.998472049131
707.945784384 0.998922856346 0.998922856346
758.577575029 0.999250190663 0.999250190663
812.830516164 0.999484254887 0.999484254887
870.963589956 0.999720630542 0.999720630542
933.254300797 0.999916588884 0.999916588884
1000.0 1.0 1.0
