# PACS Encircled Energy Fractions corresponding to PICC-ME-TN-033 V2.1
# This version only applicable to fast (60arcsec/sec) parallel mode
# Filter red
# Radius [arcsec], EEF (normal), EEF (pixfrac 0.1), Vesta (normal) Vesta (pixfrac 0.1)
1.04179318591 0.0141109368636 0.0156250004795 0.0158292466547 0.0175285324188
1.08533304222 0.0153021113505 0.0169436988137 0.0171654649393 0.0190078751112
1.13069256783 0.0165942365846 0.0183742663772 0.0186149258798 0.0206127146481
1.17794781253 0.0179959054875 0.0199262289268 0.0201872686721 0.0223537371786
1.22717800445 0.0195164428236 0.0216099237384 0.0218929534631 0.0242425392261
1.27846568294 0.0211659676457 0.023436568851 0.0237433313999 0.0262917053678
1.33189683692 0.0229554610608 0.0254183382137 0.0257507206466 0.0285148925354
1.38756104904 0.0248968397718 0.0275684432358 0.02792848888 0.0309269214997
1.44555164593 0.0270030358877 0.0299012212926 0.0302911428183 0.0335438761571
1.50596585461 0.0292871031184 0.0324314332517 0.0328533250214 0.0363823150699
1.56890496556 0.0317281695691 0.0351465607254 0.0355916014864 0.039428179664
1.63447450246 0.0343490819238 0.0380665418169 0.0385316043299 0.0427038376556
1.70278439922 0.0371729350888 0.0412089200181 0.0416992434467 0.0462289683954
1.77394918419 0.0402196455008 0.0445956845121 0.0451168605447 0.0500282399065
1.84808817224 0.0435095480751 0.0482493126162 0.04880726605 0.0541268671061
1.92532566481 0.0470641321275 0.0521934666056 0.0527945649748 0.0585513937942
2.00579115826 0.0509063933249 0.0564534139069 0.0571045518365 0.063330164162
2.08961956105 0.0550610803299 0.0610563127233 0.061764987378 0.0684936432629
2.17695141985 0.0595550334771 0.066031063182 0.0668059785726 0.0740742498463
2.26793315527 0.0644176237103 0.071407810931 0.0722604711446 0.0801057991139
2.36271730726 0.0696802166248 0.0772204829665 0.0781636479231 0.0866263486433
2.46146279095 0.0753767419226 0.0835059400265 0.084553567828 0.093677246957
2.56433516299 0.0814733403323 0.0902159148381 0.0913922060394 0.101204298638
2.6715068992 0.0879121652014 0.0972851620241 0.0986146138764 0.109134251163
2.78315768371 0.0947896231502 0.104831739352 0.106328964255 0.117599577277
2.89947471022 0.102159663243 0.112914073477 0.114595776162 0.126665821318
3.02065299583 0.110073589532 0.121595747394 0.123472597443 0.136404312215
3.14689570807 0.118584769162 0.130948409259 0.133019288654 0.146895427932
3.27841450545 0.127746121391 0.141031018413 0.143295204668 0.158205302336
3.41542989238 0.137613967866 0.151906409543 0.154363515708 0.170404415458
3.55817158885 0.148158597865 0.163510217439 0.166190831373 0.183420482971
3.70687891557 0.159110710831 0.175450983653 0.178474857481 0.196814108684
3.86180119525 0.170674699009 0.187998894926 0.191444937441 0.210888479435
4.02319817057 0.182963332588 0.201262625014 0.205227579538 0.225765505942
4.19134043968 0.196061378855 0.215328183207 0.219917858526 0.2415416569
4.36650990991 0.210049166135 0.230284565143 0.235605861822 0.258316747353
4.54900027037 0.22493719977 0.2461939738 0.252303306319 0.27616051623
4.73911748439 0.240142548887 0.262359886992 0.269355868716 0.294291152784
4.93718030248 0.255976907075 0.279132936243 0.28711328675 0.313102096142
5.14352079676 0.272625260232 0.296726638561 0.305783082356 0.332832889683
5.35848491767 0.290224890244 0.315231217484 0.325519229577 0.353584692247
5.58243307405 0.308687511692 0.334499486505 0.346222531781 0.375192200483
5.81574073736 0.327172876746 0.3535241965 0.366949829558 0.39652482367
6.05879907123 0.346199052882 0.372921540996 0.388282437293 0.418274006444
6.31201558723 0.366003670342 0.392991006212 0.410486913861 0.440775730776
6.57581482816 0.386562172946 0.413715290815 0.433535545188 0.464010424951
6.85063907981 0.406771189389 0.433907268737 0.456189812684 0.486645569528
7.1369491125 0.427220675851 0.454237592854 0.479111663295 0.509433680134
7.43522495362 0.448245206908 0.475111616691 0.502676404932 0.532829502331
7.74596669241 0.46907937902 0.495699700703 0.526024785381 0.555901689627
8.06969531847 0.489384774312 0.515485507579 0.548776754941 0.578070507205
8.40695359519 0.509861815684 0.535092264352 0.571718170938 0.60003517281
8.75830696976 0.529863765925 0.553782554395 0.59412290503 0.620967785468
9.12434452124 0.5489888887 0.571260101469 0.615539778517 0.640535527977
9.50567994816 0.567983631493 0.588421980679 0.636806233687 0.659744897194
9.90295259747 0.585767385946 0.604369669345 0.656709117671 0.677587101283
10.3168285365 0.60280012163 0.619479633175 0.675764291525 0.694484282036
10.7480016695 0.619143778884 0.633808333333 0.694040862072 0.710499396806
11.1971949015 0.634282879474 0.647044748316 0.710959844304 0.725282929425
11.6651613498 0.648881920449 0.659864197229 0.727266542075 0.739592329707
12.1526856068 0.66244043921 0.671823306764 0.742398743573 0.752929459121
12.6605850557 0.675579320641 0.6835603778 0.757052719072 0.766010134514
13.1897112407 0.687952817541 0.694775564248 0.770839805694 0.778497209405
13.7409512947 0.700018418217 0.705853924826 0.784272786632 0.790822176766
14.3152294268 0.71162847083 0.716825695097 0.797185218129 0.803018241997
14.9135084717 0.723013564923 0.727797437501 0.809835107552 0.815204212578
15.5367915039 0.73419073776 0.738706751982 0.822240717671 0.827309196034
16.1861235197 0.745090678936 0.749465395203 0.834323327014 0.839233221815
16.8625931892 0.755833951105 0.760156841324 0.846217235652 0.851068964293
17.5673346813 0.766322638221 0.770669224637 0.857811451166 0.862689774865
18.3015295657 0.776410307147 0.780700889424 0.868940435048 0.873755903372
19.0664087933 0.786095388719 0.790310906572 0.879601132941 0.884332353876
19.8632547607 0.795260572701 0.799341794076 0.889660479939 0.894240975308
20.6934034598 0.803799238778 0.807691700012 0.898997289028 0.903365932389
21.5582467178 0.811647764637 0.815229461102 0.907538501347 0.911558362699
22.4592345308 0.818764812666 0.822007177931 0.91523592783 0.918874946085
23.3978774951 0.825184853847 0.828115076412 0.922126308888 0.925414998636
24.3757493392 0.830973370078 0.833588627302 0.928281023358 0.931216216651
25.3944895631 0.836218330443 0.838518059803 0.933796507848 0.936377573348
26.4558061867 0.841037379987 0.843042172498 0.938802309557 0.941052357268
27.5614786131 0.845561318777 0.847313981155 0.943442527544 0.94540960092
28.7133606129 0.849924535326 0.851462921506 0.947865057709 0.949591641525
29.9133834312 0.854254378558 0.855720738295 0.952209644896 0.953855390953
31.1635590262 0.858646647164 0.860031398357 0.956580352403 0.958134506379
32.4659834423 0.863107123589 0.864475736964 0.960979920377 0.962515962324
33.8228403242 0.867575820503 0.869050045418 0.965336953307 0.966991526725
35.236404578 0.871977706609 0.873388504735 0.969562824048 0.971146211394
36.7090461855 0.876227811288 0.87758626054 0.973557373292 0.975082007694
38.2432341775 0.880268390804 0.881536634745 0.977250590333 0.978673984207
39.8415407734 0.884101554943 0.885287728221 0.980639196153 0.981970479293
41.5066456941 0.887726623707 0.888821245034 0.983716298791 0.984944830022
43.2413406542 0.891176478411 0.892131236053 0.986512150322 0.987583707721
45.0485340433 0.894515725423 0.895370261374 0.989092041326 0.990051116467
46.9312558018 0.897780416096 0.898528683029 0.991488598052 0.992328403813
48.8926625007 0.900935893615 0.90164088456 0.993654419916 0.994445655544
50.9360426344 0.903923496088 0.904501011388 0.995514438934 0.996162604254
53.0648221339 0.906701306317 0.907113399954 0.997011592667 0.997474099554
55.2825701109 0.909345208207 0.909646634882 0.998220176106 0.998558477649
57.5930048413 0.911916260754 0.912004136761 0.999196917982 0.999295544253
60.0 0.914477714718 0.914477714718 1.0 1.0
63.095734448 0.917381591215 0.917381591215
67.6082975392 0.921230107911 0.921230107911
72.4435960075 0.925012192503 0.925012192503
77.6247116629 0.928724610234 0.928724610234
83.1763771103 0.932432919439 0.932432919439
89.1250938134 0.93621708956 0.93621708956
95.4992586021 0.939945014987 0.939945014987
102.329299228 0.943510234194 0.943510234194
109.647819614 0.946767216084 0.946767216084
117.489755494 0.949707338008 0.949707338008
125.892541179 0.952431148148 0.952431148148
134.896288259 0.955030572975 0.955030572975
144.543977075 0.95756208184 0.95756208184
154.881661891 0.96004374027 0.96004374027
165.958690744 0.962420921981 0.962420921981
177.827941004 0.964715505833 0.964715505833
190.546071796 0.966974739291 0.966974739291
204.173794467 0.969187122674 0.969187122674
218.776162395 0.971382174303 0.971382174303
234.422881532 0.973579247763 0.973579247763
251.188643151 0.975735778159 0.975735778159
269.153480393 0.977839300216 0.977839300216
288.403150313 0.979878147524 0.979878147524
309.029543251 0.981787769904 0.981787769904
331.131121483 0.983609932575 0.983609932575
354.813389234 0.985371630891 0.985371630891
380.189396321 0.986964016606 0.986964016606
407.380277804 0.988438949356 0.988438949356
436.51583224 0.989856139983 0.989856139983
467.735141287 0.991227850317 0.991227850317
501.187233627 0.992496874134 0.992496874134
537.03179637 0.993685555174 0.993685555174
575.439937337 0.994736660027 0.994736660027
616.595001861 0.995698327763 0.995698327763
660.693448008 0.996479558808 0.996479558808
707.945784384 0.997169312645 0.997169312645
758.577575029 0.997895745759 0.997895745759
812.830516164 0.998478471479 0.998478471479
870.963589956 0.998992480961 0.998992480961
933.254300797 0.999560794775 0.999560794775
1000.0 1.0 1.0
